time,Lat,Lon,Pressure,QCLS_CO,GEOS_CO,CO_bbGlobal,CO_bbNAm,CO_bbSAm,CO_bbAfrica,CO_bbEuras,CO_nbGlobal,CO_nbAsia,CO_nbNam,CO_nbEuro
32630.0,38.7491,-27.0779,996.931,93.0489,92.1593,11.4161,2.96516,0.363878,1.56902,5.38210,80.7040,16.8194,28.2574,5.73322
32640.0,38.7432,-27.0714,988.750,93.5200,92.1133,11.3931,2.96640,0.365050,1.57608,5.36381,80.6703,16.7796,28.2467,5.71543
32650.0,38.7370,-27.0652,984.275,92.1000,92.1065,11.3908,2.96945,0.365523,1.57694,5.36245,80.6586,16.7753,28.2422,5.71399
32660.0,38.7304,-27.0584,976.858,91.3231,92.1504,11.3721,2.97354,0.366838,1.58432,5.33964,80.7075,16.7311,28.3239,5.69333
32670.0,38.7239,-27.0517,964.964,91.1007,92.4117,11.2885,2.97727,0.370915,1.61722,5.23106,81.0303,16.5303,28.7710,5.59565
32680.0,38.7178,-27.0447,956.186,91.5649,92.5738,11.1103,2.95773,0.375290,1.68005,5.02867,81.3737,16.1376,29.3376,5.41160
32690.0,38.7130,-27.0354,950.756,91.7603,92.5722,10.9133,2.92534,0.378562,1.74694,4.81860,81.5897,15.7174,29.7861,5.21967
32700.0,38.7099,-27.0246,946.537,92.3453,92.4837,10.7021,2.88530,0.381549,1.81775,4.59997,81.7414,15.2712,30.1821,5.01975
32710.0,38.7084,-27.0126,943.322,92.2964,92.3896,10.5155,2.84764,0.384178,1.88070,4.40806,81.8618,14.8755,30.5183,4.84467
32720.0,38.7087,-26.9994,942.455,92.1998,92.4892,10.4808,2.84055,0.385247,1.89673,4.36578,82.0058,14.7895,30.7110,4.80726
32730.0,38.7113,-26.9857,939.465,92.6720,92.3849,10.2929,2.80031,0.388214,1.96099,4.17262,82.1166,14.3876,31.0409,4.63219
32740.0,38.7160,-26.9723,934.071,93.3880,91.9165,9.91726,2.71805,0.393111,2.08196,3.79702,82.0669,13.6035,31.4155,4.29163
32750.0,38.7224,-26.9598,925.350,-99999.0,90.4006,9.34095,2.58861,0.397428,2.25169,3.23911,81.1714,12.4387,31.1492,3.78901
32760.0,38.7304,-26.9486,913.443,-99999.0,86.6392,8.84016,2.46949,0.391299,2.35821,2.80283,77.9020,11.5254,28.3774,3.40731
32770.0,38.7390,-26.9382,900.616,-99999.0,82.4701,8.61458,2.40347,0.378132,2.37079,2.66845,73.8936,11.2417,24.5465,3.30479
32780.0,38.7477,-26.9281,892.876,-99999.0,81.2874,8.58370,2.38298,0.373492,2.37234,2.67757,72.6921,11.2699,23.3620,3.32385
32790.0,38.7567,-26.9176,886.151,-99999.0,81.0757,8.58326,2.36954,0.371928,2.37767,2.69740,72.4463,11.3287,23.1340,3.34979
32800.0,38.7664,-26.9077,878.551,-99999.0,81.3334,8.59923,2.35809,0.371617,2.37970,2.72432,72.6664,11.4054,23.3800,3.37995
32810.0,38.7765,-26.8981,870.918,-99999.0,81.6881,8.61517,2.34953,0.371649,2.37373,2.74548,73.0083,11.4567,23.7443,3.39937
32820.0,38.7867,-26.8880,863.472,-99999.0,81.8992,8.61692,2.34149,0.371273,2.36305,2.75275,73.2387,11.4634,23.9878,3.40094
32830.0,38.7970,-26.8778,856.526,-99999.0,81.9989,8.60826,2.33205,0.370399,2.35447,2.75104,73.3692,11.4454,24.1134,3.39224
32840.0,38.8074,-26.8669,849.494,-99999.0,82.0304,8.59162,2.31930,0.368660,2.35287,2.74249,73.4354,11.4135,24.1564,3.37780
32850.0,38.8179,-26.8558,842.481,-99999.0,82.0197,8.57399,2.30282,0.366741,2.36220,2.72990,73.4519,11.3799,24.1430,3.36210
32860.0,38.8287,-26.8449,835.609,-99999.0,81.9678,8.55642,2.28337,0.365598,2.38288,2.71040,73.4255,11.3373,24.1096,3.34335
32870.0,38.8397,-26.8335,828.357,-99999.0,81.8328,8.53124,2.25974,0.365489,2.41814,2.67550,73.3263,11.2658,24.0595,3.31507
32880.0,38.8508,-26.8222,818.371,-99999.0,81.4070,8.46548,2.22062,0.366391,2.49242,2.59062,72.9712,11.0946,23.9087,3.25284
32890.0,38.8620,-26.8112,806.969,-99999.0,80.6583,8.36685,2.16865,0.368272,2.62197,2.44930,72.3131,10.8040,23.6065,3.15650
32900.0,38.8730,-26.7998,795.885,87.1983,79.8484,8.29834,2.11321,0.371744,2.80403,2.28718,71.5833,10.4574,23.2240,3.05202
32910.0,38.8839,-26.7882,785.261,85.8038,79.1942,8.29362,2.05638,0.377179,3.02670,2.13531,70.9747,10.1407,22.9227,2.96544
32920.0,38.8947,-26.7767,774.802,86.1677,78.8746,8.37888,1.99635,0.382158,3.25978,2.05050,70.5715,10.0305,22.8030,2.95277
32930.0,38.9055,-26.7652,764.375,82.6783,79.0311,8.58720,1.93183,0.382925,3.44631,2.11143,70.3995,10.3934,22.7343,3.08537
32940.0,38.9163,-26.7537,753.762,83.6183,79.6041,8.89119,1.85991,0.377459,3.45323,2.39362,70.4974,11.6688,22.2990,3.41260
32950.0,38.9271,-26.7425,743.323,84.0115,80.3967,9.19675,1.78112,0.367010,3.14506,2.92346,70.9580,14.1649,21.2707,3.92670
32960.0,38.9378,-26.7314,733.202,84.5084,81.1618,9.37117,1.69649,0.362625,2.72884,3.43407,71.7003,16.7984,20.3034,4.38667
32970.0,38.9485,-26.7202,723.083,80.7274,81.7448,9.29285,1.60506,0.380105,2.62920,3.48681,72.5203,17.6312,20.4211,4.42446
32980.0,38.9591,-26.7091,713.283,73.3891,82.0293,8.94733,1.51294,0.423745,3.08120,2.86691,73.1391,15.5940,21.9738,3.87185
32990.0,38.9696,-26.6980,703.993,75.3857,81.9133,8.51799,1.42636,0.474014,3.77275,1.96853,73.3234,12.2246,23.9045,3.08251
33000.0,38.9801,-26.6866,697.886,68.4842,81.5344,8.25409,1.37137,0.503358,4.21906,1.39090,73.1102,9.95459,24.9396,2.57950
33010.0,38.9908,-26.6752,693.265,65.9630,81.0628,8.08657,1.33139,0.520862,4.50184,1.02046,72.7413,8.45298,25.4430,2.25975
33020.0,39.0017,-26.6637,689.503,67.0354,80.5501,7.97089,1.30040,0.531670,4.68868,0.768686,72.3002,7.40626,25.6551,2.04454
33030.0,39.0131,-26.6519,686.785,70.2731,79.9853,7.89910,1.27984,0.535489,4.77363,0.635802,71.7939,6.84288,25.6205,1.93315
33040.0,39.0248,-26.6399,684.063,69.4788,79.4018,7.83927,1.26140,0.537535,4.83042,0.536505,71.2650,6.41595,25.5085,1.85103
33050.0,39.0368,-26.6278,681.919,69.5077,78.8981,7.79867,1.24808,0.537711,4.85717,0.477944,70.8027,6.15601,25.3556,1.80397
33060.0,39.0491,-26.6151,679.890,69.8295,78.4216,7.76615,1.23698,0.536892,4.86693,0.440722,70.3633,5.98721,25.1743,1.77518
33070.0,39.0616,-26.6019,677.784,69.2536,77.9551,7.73835,1.22740,0.535243,4.86118,0.421333,69.9327,5.89872,24.9626,1.76149
33080.0,39.0743,-26.5883,675.656,69.1934,77.5148,7.71557,1.21977,0.532806,4.84009,0.419916,69.5263,5.89317,24.7278,1.76290
33090.0,39.0873,-26.5744,673.551,70.1797,77.1134,7.69751,1.21431,0.529683,4.80519,0.434893,69.1560,5.96543,24.4783,1.77800
33100.0,39.1005,-26.5604,670.490,70.3462,76.6806,7.67895,1.21097,0.525024,4.73554,0.481241,68.7645,6.19783,24.1469,1.81937
33110.0,39.1140,-26.5462,666.802,71.9807,76.3553,7.66769,1.21462,0.518288,4.62041,0.573313,68.4856,6.65018,23.8071,1.89929
33120.0,39.1278,-26.5318,663.102,74.1993,76.1542,7.66291,1.22424,0.511009,4.48909,0.682310,68.3245,7.20819,23.4596,1.99295
33130.0,39.1416,-26.5173,659.106,80.0901,76.0769,7.66425,1.24085,0.503104,4.33736,0.810331,68.2813,7.89221,23.0907,2.10267
33140.0,39.1556,-26.5025,655.235,80.2041,76.1410,7.67209,1.26320,0.495383,4.18288,0.941539,68.3680,8.61936,22.7542,2.21577
33150.0,39.1697,-26.4875,650.820,80.7418,76.3491,7.69027,1.29507,0.487107,4.00646,1.09252,68.5855,9.48566,22.3929,2.34817
33160.0,39.1839,-26.4723,645.839,81.6395,76.7217,7.72530,1.33861,0.478384,3.80953,1.26371,68.9431,10.4927,22.0095,2.50324
33170.0,39.1981,-26.4572,640.271,81.7339,77.2518,7.78331,1.39518,0.469175,3.59131,1.45837,69.4252,11.6499,21.5894,2.68644
33180.0,39.2124,-26.4419,634.002,81.8780,77.9182,7.87039,1.46640,0.459254,3.34706,1.68361,70.0034,12.9862,21.0997,2.90627
33190.0,39.2267,-26.4268,625.984,82.9243,78.7620,8.00962,1.56473,0.447191,3.04007,1.97884,70.6926,14.7165,20.4156,3.20421
33200.0,39.2413,-26.4124,617.568,85.1188,79.5858,8.17653,1.67211,0.435173,2.72847,2.28885,71.3236,16.5160,19.6520,3.52545
33210.0,39.2574,-26.4015,609.716,75.3093,80.2609,8.33899,1.77076,0.425844,2.47667,2.54780,71.8136,18.0075,19.0572,3.79875
33220.0,39.2749,-26.3968,601.867,79.2336,80.8254,8.48578,1.86084,0.419687,2.29589,2.73965,72.2251,19.1213,18.7550,4.00237
33230.0,39.2926,-26.3975,594.428,70.7734,81.2156,8.59044,1.93051,0.416742,2.18905,2.85253,72.5235,19.8194,18.6766,4.12116
33240.0,39.3101,-26.4010,588.078,80.2286,81.4332,8.64684,1.97294,0.417013,2.15566,2.88734,72.7079,20.0902,18.7795,4.15585
33250.0,39.3274,-26.4060,581.792,83.8719,81.5221,8.67307,1.99745,0.419538,2.16643,2.87476,72.7986,20.1121,18.9479,4.13938
33260.0,39.3445,-26.4120,575.663,78.7816,81.4863,8.67094,2.00363,0.424114,2.21571,2.82140,72.7928,19.9148,19.1429,4.07918
33270.0,39.3615,-26.4180,569.853,77.7404,81.3409,8.64456,1.99301,0.430304,2.29475,2.73702,72.6971,19.5443,19.3313,3.98607
33280.0,39.3784,-26.4247,563.993,79.3123,81.0821,8.59785,1.96776,0.437934,2.39696,2.62805,72.5030,19.0406,19.4795,3.86745
33290.0,39.3953,-26.4316,558.047,82.7602,80.7086,8.53406,1.92956,0.446712,2.51603,2.50093,72.2046,18.4368,19.5610,3.73084
33300.0,39.4122,-26.4380,552.199,75.5164,80.2401,8.45936,1.88220,0.456048,2.64256,2.36579,71.8147,17.7797,19.5631,3.58759
33310.0,39.4292,-26.4447,546.929,76.4447,79.7406,8.38422,1.83275,0.464999,2.76398,2.23696,71.3879,17.1313,19.5078,3.45279
33320.0,39.4462,-26.4510,542.181,77.1121,79.2281,8.31342,1.78509,0.473163,2.87558,2.11927,70.9405,16.5191,19.4054,3.33143
33330.0,39.4633,-26.4574,537.441,74.7054,78.6571,8.24537,1.73858,0.480760,2.97990,2.00890,70.4314,15.9307,19.2342,3.22008
33340.0,39.4804,-26.4640,532.605,71.2728,78.0169,8.18148,1.69445,0.487625,3.07580,1.90688,69.8505,15.3700,18.9902,3.12004
33350.0,39.4975,-26.4700,527.857,70.6306,77.3354,8.12487,1.65512,0.493424,3.16100,1.81633,69.2242,14.8488,18.6958,3.03403
33360.0,39.5147,-26.4768,523.174,72.3403,76.5163,8.08126,1.62492,0.496073,3.19983,1.76395,68.4559,14.5366,18.2596,2.98899
33370.0,39.5318,-26.4834,518.716,70.9203,75.7061,8.04342,1.60008,0.497938,3.23280,1.71711,67.6930,14.2281,17.8544,2.94826
33380.0,39.5490,-26.4900,515.208,72.2697,75.0422,8.01336,1.58167,0.499256,3.26313,1.67581,67.0682,13.9271,17.5662,2.91001
33390.0,39.5663,-26.4971,512.061,73.3188,74.4435,7.98708,1.56674,0.500375,3.29379,1.63552,66.5048,13.6158,17.3383,2.87102
33400.0,39.5838,-26.5036,509.131,73.6815,73.8928,7.96331,1.55434,0.501419,3.32570,1.59509,65.9869,13.2908,17.1572,2.83048
33410.0,39.6013,-26.5108,506.528,71.7575,73.4064,7.94229,1.54431,0.502364,3.35735,1.55604,65.5301,12.9662,17.0251,2.78993
33420.0,39.6191,-26.5176,504.068,67.3114,72.9598,7.92274,1.53582,0.503313,3.38992,1.51687,65.1112,12.6340,16.9271,2.74827
33430.0,39.6369,-26.5247,501.591,66.9663,72.5334,7.90369,1.52832,0.504307,3.42423,1.47645,64.7116,12.2872,16.8525,2.70457
33440.0,39.6549,-26.5319,499.208,69.0658,72.1432,7.88541,1.52174,0.505317,3.45899,1.43622,64.3465,11.9378,16.8051,2.66030
33450.0,39.6731,-26.5388,496.792,69.5681,71.7760,7.86706,1.51564,0.506401,3.49492,1.39533,64.0036,11.5802,16.7790,2.61476
33460.0,39.6913,-26.5464,494.267,69.1151,71.4269,7.84832,1.50981,0.507563,3.53196,1.35367,63.6780,11.2142,16.7701,2.56794
33470.0,39.7097,-26.5533,491.856,67.7544,71.1223,7.83021,1.50447,0.508807,3.56777,1.31378,63.3951,10.8613,16.7849,2.52250
33480.0,39.7283,-26.5608,489.201,64.9750,70.8307,7.81104,1.49903,0.510196,3.60466,1.27298,63.1245,10.5001,16.8140,2.47585
33490.0,39.7469,-26.5680,486.452,66.4095,70.5779,7.79094,1.49364,0.511836,3.64051,1.23362,62.8919,10.1502,16.8655,2.43069
33500.0,39.7656,-26.5753,483.724,66.5428,70.3849,7.76982,1.48913,0.512775,3.65990,1.20754,62.7169,9.91739,16.8723,2.40074
33510.0,39.7845,-26.5828,480.969,66.9879,70.2228,7.74878,1.48476,0.513600,3.67523,1.18570,62.5708,9.72005,16.8795,2.37541
33520.0,39.8033,-26.5902,477.937,66.2936,70.0764,7.72721,1.48014,0.514638,3.69141,1.16425,62.4388,9.52553,16.9020,2.35052
33530.0,39.8222,-26.5979,473.407,66.2317,69.9141,7.70020,1.47383,0.516552,3.71653,1.13646,62.2909,9.27871,16.9644,2.31919
33540.0,39.8410,-26.6053,468.208,66.7455,69.8134,7.67510,1.46870,0.519671,3.74550,1.10837,62.1994,9.03512,17.0867,2.28801
33550.0,39.8598,-26.6130,463.095,66.7876,69.8156,7.65842,1.46752,0.524148,3.77426,1.08379,62.2026,8.83064,17.2666,2.26119
33560.0,39.8785,-26.6201,458.181,67.4572,69.9267,7.65289,1.47181,0.530281,3.80269,1.06248,62.3054,8.66568,17.5028,2.23857
33570.0,39.8972,-26.6275,453.496,66.9715,70.1501,7.66037,1.48274,0.538258,3.83084,1.04401,62.5103,8.53738,17.7926,2.21972
33580.0,39.9159,-26.6347,448.755,67.5218,70.5116,7.68380,1.50247,0.548850,3.86025,1.02711,62.8401,8.43735,18.1591,2.20325
33590.0,39.9344,-26.6420,444.165,67.6510,71.0048,7.72415,1.53136,0.561917,3.88976,1.01234,63.2882,8.36798,18.5872,2.18961
33600.0,39.9529,-26.6495,439.580,68.3392,71.6292,7.78190,1.56976,0.577747,3.92078,0.998776,63.8531,8.32065,19.0808,2.17780
33610.0,39.9713,-26.6569,434.933,67.8738,72.3841,7.85759,1.61799,0.596527,3.95416,0.985891,64.5330,8.28944,19.6406,2.16728
33620.0,39.9896,-26.6645,430.349,67.1959,73.2368,7.94871,1.67444,0.617726,3.98961,0.973612,65.2973,8.26944,20.2433,2.15790
33630.0,40.0078,-26.6716,425.922,66.8837,74.1000,8.04436,1.73538,0.639457,4.01942,0.962324,66.0709,8.25617,20.8333,2.14897
33640.0,40.0260,-26.6791,421.659,67.1730,74.9187,8.13615,1.79586,0.660074,4.04106,0.952595,66.8074,8.24642,21.3828,2.14054
33650.0,40.0442,-26.6860,417.393,-99999.0,75.7695,8.23328,1.85772,0.681104,4.06523,0.943340,67.5703,8.23464,21.9517,2.13286
33660.0,40.0623,-26.6933,413.080,-99999.0,76.6482,8.33509,1.92070,0.702407,4.09269,0.934073,68.3556,8.21652,22.5416,2.12560
33670.0,40.0803,-26.7004,408.949,-99999.0,77.4919,8.43427,1.98079,0.722554,4.12174,0.924934,69.1072,8.18943,23.1134,2.11885
33680.0,40.0982,-26.7075,406.248,-99999.0,78.0200,8.50012,2.01997,0.735867,4.14273,0.918380,69.5742,8.16089,23.4676,2.11407
33690.0,40.1163,-26.7149,404.009,-99999.0,78.4445,8.55468,2.05189,0.746739,4.16159,0.912620,69.9480,8.13022,23.7542,2.10997
33700.0,40.1343,-26.7220,401.673,-99999.0,78.8870,8.61054,2.08436,0.757524,4.18210,0.906490,70.3380,8.09407,24.0619,2.10578
33710.0,40.1525,-26.7296,399.846,-99999.0,79.2178,8.65387,2.10914,0.765756,4.19932,0.901397,70.6284,8.05934,24.2943,2.10235
33720.0,40.1708,-26.7367,400.172,-99999.0,79.0902,8.64827,2.10434,0.765294,4.19925,0.901396,70.5092,8.04924,24.1848,2.10191
33730.0,40.1894,-26.7444,400.752,-99999.0,78.9057,8.63676,2.09619,0.763833,4.19672,0.901977,70.3392,8.04207,24.0316,2.10179
33740.0,40.2083,-26.7518,400.848,-99999.0,78.8236,8.63579,2.09444,0.764198,4.19789,0.901452,70.2612,8.02926,23.9565,2.10102
33750.0,40.2273,-26.7596,400.716,-99999.0,78.7893,8.63962,2.09556,0.765348,4.20087,0.900439,70.2266,8.01382,23.9189,2.09999
33760.0,40.2465,-26.7673,400.519,-99999.0,78.7682,8.64453,2.09731,0.766639,4.20426,0.899315,70.2043,7.99764,23.8927,2.09891
33770.0,40.2659,-26.7751,399.233,-99999.0,78.9576,8.66430,2.11018,0.770266,4.21313,0.895718,70.3726,7.97243,24.0464,2.09625
33780.0,40.2853,-26.7831,397.279,-99999.0,79.2760,8.69500,2.13045,0.775618,4.22596,0.890845,70.6573,7.93937,24.3079,2.09283
33790.0,40.3049,-26.7909,395.417,-99999.0,79.5656,8.72177,2.14903,0.780325,4.23670,0.886428,70.9164,7.90715,24.5501,2.08959
33800.0,40.3243,-26.7993,393.738,-99999.0,79.8093,8.74310,2.16475,0.784164,4.24482,0.882672,71.1344,7.87755,24.7582,2.08667
33810.0,40.3431,-26.8098,391.911,-99999.0,80.0770,8.76585,2.18167,0.788223,4.25303,0.878924,71.3742,7.84657,24.9880,2.08377
33820.0,40.3612,-26.8220,389.747,-99999.0,80.4075,8.79310,2.20184,0.793036,4.26230,0.874848,71.6707,7.81172,25.2710,2.08066
33830.0,40.3792,-26.8346,387.382,-99999.0,80.7724,8.82141,2.22320,0.798130,4.27116,0.870775,71.9991,7.77510,25.5845,2.07745
33840.0,40.3972,-26.8472,385.110,-99999.0,81.1143,8.84529,2.24209,0.802681,4.27765,0.867314,72.3074,7.74131,25.8808,2.07447
33850.0,40.4153,-26.8596,382.960,-99999.0,81.4305,8.86450,2.25813,0.806672,4.28183,0.864530,72.5935,7.71120,26.1569,2.07176
33860.0,40.4336,-26.8717,380.818,-99999.0,81.7474,8.88101,2.27247,0.810433,4.28446,0.862255,72.8816,7.68370,26.4342,2.06925
33870.0,40.4519,-26.8839,378.664,-99999.0,82.1005,8.89618,2.28628,0.814217,4.28631,0.860150,73.2059,7.65549,26.7453,2.06660
33880.0,40.4703,-26.8960,376.503,-99999.0,82.4886,8.90977,2.29871,0.817796,4.28772,0.858607,73.5660,7.63006,27.0897,2.06435
33890.0,40.4887,-26.9079,374.317,-99999.0,82.9124,8.92158,2.30924,0.821068,4.28869,0.857868,73.9628,7.60976,27.4674,2.06277
33900.0,40.5071,-26.9199,372.049,-99999.0,83.4344,8.93572,2.32059,0.824426,4.29097,0.857363,74.4559,7.59348,27.9349,2.06192
33910.0,40.5254,-26.9320,369.813,-99999.0,84.0642,8.95268,2.33278,0.827652,4.29525,0.857090,75.0560,7.58288,28.5032,2.06220
33920.0,40.5438,-26.9442,367.608,81.1494,84.7363,8.96638,2.34118,0.830045,4.29922,0.858282,75.7018,7.58235,29.1128,2.06391
33930.0,40.5622,-26.9562,365.353,82.7556,85.4711,8.97737,2.34590,0.831620,4.30307,0.861029,76.4131,7.59298,29.7820,2.06716
33940.0,40.5806,-26.9683,363.105,83.2249,86.2560,8.98479,2.34635,0.832191,4.30657,0.865426,77.1782,7.61595,30.5009,2.07204
33950.0,40.5989,-26.9805,360.974,82.6128,87.0583,8.98803,2.34233,0.831646,4.30943,0.871329,77.9657,7.65091,31.2407,2.07837
33960.0,40.6173,-26.9926,358.868,78.9164,87.8984,8.98773,2.33416,0.830044,4.31182,0.878767,78.7952,7.69845,32.0196,2.08622
33970.0,40.6357,-27.0045,356.660,77.0227,88.8102,8.98406,2.32157,0.827326,4.31380,0.888002,79.6999,7.76115,32.8683,2.09587
33980.0,40.6540,-27.0167,354.719,77.1778,89.6821,8.97642,2.30552,0.823584,4.31482,0.898120,80.5702,7.83226,33.6866,2.10635
33990.0,40.6724,-27.0289,353.064,77.4202,90.4997,8.96595,2.28724,0.819093,4.31502,0.908684,81.3904,7.90817,34.4604,2.11725
34000.0,40.6908,-27.0409,351.391,77.5482,91.3463,8.95304,2.26609,0.813766,4.31467,0.920342,82.2425,7.99455,35.2644,2.12927
34010.0,40.7092,-27.0531,349.725,77.8084,92.2113,8.93769,2.24226,0.807627,4.31364,0.932980,83.1161,8.09077,36.0892,2.14228
34020.0,40.7275,-27.0654,348.093,78.2390,93.0802,8.92016,2.21623,0.800782,4.31187,0.946367,83.9966,8.19524,36.9212,2.15604
34030.0,40.7459,-27.0778,346.496,78.8213,93.9477,8.90073,2.18838,0.793326,4.30935,0.960359,84.8781,8.30692,37.7550,2.17043
34040.0,40.7643,-27.0900,344.913,78.1597,94.7305,8.87797,2.15895,0.784250,4.30440,0.975776,85.6821,8.42994,38.5208,2.18497
34050.0,40.7827,-27.1025,343.383,77.5626,95.4439,8.85277,2.12861,0.774503,4.29805,0.991539,86.4206,8.55666,39.2284,2.19929
34060.0,40.8012,-27.1149,341.826,77.2620,96.1245,8.82539,2.09708,0.764378,4.29075,1.00748,87.1292,8.68722,39.9088,2.21358
34070.0,40.8196,-27.1274,340.340,77.0691,96.7443,8.79713,2.06580,0.754236,4.28285,1.02300,87.7786,8.81595,40.5350,2.22729
34080.0,40.8381,-27.1395,338.840,77.2137,97.3240,8.76773,2.03427,0.744005,4.27431,1.03831,88.3897,8.94522,41.1255,2.24063
34090.0,40.8566,-27.1519,337.377,77.6492,97.8548,8.73785,2.00316,0.733835,4.26535,1.05318,88.9528,9.07254,41.6718,2.25343
34100.0,40.8751,-27.1643,335.968,78.3544,98.3326,8.70811,1.97301,0.723888,4.25618,1.06740,89.4630,9.19583,42.1689,2.26550
34110.0,40.8937,-27.1766,334.624,78.6069,98.7584,8.67889,1.94408,0.714236,4.24696,1.08090,89.9210,9.31414,42.6177,2.27680
34120.0,40.9122,-27.1889,333.207,77.7458,99.1526,8.64900,1.91538,0.704788,4.23693,1.09392,90.3483,9.43124,43.0347,2.28751
34130.0,40.9307,-27.2014,331.699,76.2871,99.4760,8.61651,1.88757,0.696349,4.22237,1.10586,90.7061,9.54109,43.3725,2.29642
34140.0,40.9492,-27.2139,330.138,77.5099,99.7583,8.58483,1.86131,0.688687,4.20731,1.11667,91.0203,9.64397,43.6663,2.30429
34150.0,40.9677,-27.2265,328.730,77.2967,99.9752,8.55574,1.83820,0.682042,4.19255,1.12600,91.2646,9.73326,43.8945,2.31075
34160.0,40.9862,-27.2389,327.409,78.0726,100.143,8.52886,1.81764,0.676266,4.17815,1.13405,91.4565,9.81153,44.0726,2.31605
34170.0,41.0047,-27.2513,326.098,80.0234,100.234,8.50254,1.80084,0.672154,4.15993,1.14097,91.5682,9.87802,44.1707,2.31973
34180.0,41.0233,-27.2638,324.803,80.6367,100.181,8.47531,1.79122,0.671261,4.13113,1.14690,91.5366,9.92658,44.1256,2.32082
34190.0,41.0418,-27.2762,323.423,80.7206,100.137,8.45046,1.78281,0.670767,4.10441,1.15189,91.5115,9.96902,44.0855,2.32157
34200.0,41.0603,-27.2886,322.012,79.5219,100.096,8.42832,1.77583,0.670671,4.08009,1.15594,91.4892,10.0042,44.0477,2.32194
34210.0,41.0788,-27.3012,320.579,79.4396,100.062,8.40896,1.77025,0.670947,4.05836,1.15902,91.4709,10.0320,44.0138,2.32194
34220.0,41.0973,-27.3138,319.172,80.6882,100.030,8.39246,1.76611,0.671551,4.03929,1.16121,91.4533,10.0521,43.9813,2.32158
34230.0,41.1157,-27.3263,317.754,80.7186,100.008,8.37887,1.76319,0.672443,4.02330,1.16244,91.4442,10.0653,43.9571,2.32091
34240.0,41.1341,-27.3387,316.328,80.9787,99.9980,8.36816,1.76138,0.673581,4.01050,1.16276,91.4452,10.0718,43.9430,2.31998
